 Z Pressure Temperature U_H2O U_O3
   0.00000000       1013.00000       288.100006       5.90000010       5.40000001E-05
   1.00000000       898.599976       281.600006       4.19999981       5.40000001E-05
   2.00000000       795.000000       275.100006       2.90000010       5.40000001E-05
   3.00000000       701.200012       268.700012       1.79999995       4.99999987E-05
   4.00000000       616.599976       262.200012       1.10000002       4.60000010E-05
   5.00000000       540.500000       255.699997      0.639999986       4.60000010E-05
   6.00000000       472.200012       249.199997      0.379999995       4.50000007E-05
   7.00000000       411.100006       242.699997      0.209999993       4.89999984E-05
   8.00000000       356.500000       236.199997      0.119999997       5.19999994E-05
   9.00000000       308.000000       229.699997       4.60000001E-02   7.10000022E-05
   10.0000000       265.000000       223.199997       1.79999992E-02   9.00000014E-05
   11.0000000       227.000000       216.800003       8.20000004E-03   1.30000000E-04
   12.0000000       194.000000       216.600006       3.70000000E-03   1.59999996E-04
   13.0000000       165.800003       216.600006       1.79999997E-03   1.69999999E-04
   14.0000000       141.699997       216.600006       8.39999993E-04   1.90000006E-04
   15.0000000       121.099998       216.600006       7.20000011E-04   2.09999998E-04
   16.0000000       103.500000       216.600006       6.09999988E-04   2.39999994E-04
   17.0000000       88.5000000       216.600006       5.20000001E-04   2.80000007E-04
   18.0000000       75.6500015       216.600006       4.40000003E-04   3.19999992E-04
   19.0000000       64.6699982       216.600006       4.40000003E-04   3.49999988E-04
   20.0000000       55.2900009       216.600006       4.40000003E-04   3.80000012E-04
   21.0000000       47.2900009       217.600006       4.79999988E-04   3.80000012E-04
   22.0000000       40.4700012       218.600006       5.20000001E-04   3.90000001E-04
   23.0000000       34.6699982       219.600006       5.69999975E-04   3.80000012E-04
   24.0000000       29.7199993       220.600006       6.09999988E-04   3.60000005E-04
   25.0000000       25.4899998       221.600006       6.60000020E-04   3.39999999E-04
   30.0000000       11.9700003       226.500000       3.80000012E-04   1.99999995E-04
   35.0000000       5.74599981       236.500000       1.59999996E-04   1.10000001E-04
   40.0000000       2.87100005       253.399994       6.70000009E-05   4.89999984E-05
   45.0000000       1.49100006       264.200012       3.19999999E-05   1.70000003E-05
   50.0000000      0.797800004       270.600006       1.20000004E-05   3.99999999E-06
   70.0000000       5.51999994E-02   219.699997       1.50000005E-07   8.60000000E-08
   100.000000       3.00799991E-04   210.000000       9.99999972E-10   4.29999994E-11
   99999.0000       0.00000000       210.000000       0.00000000       0.00000000    
